"B6.spc - RawData"
"Wavelength nm."	"Abs."
220.00	2.184
222.00	2.079
224.00	1.960
226.00	1.825
228.00	1.671
230.00	1.500
232.00	1.323
234.00	1.149
236.00	0.981
238.00	0.830
240.00	0.695
242.00	0.581
244.00	0.491
246.00	0.418
248.00	0.361
250.00	0.315
252.00	0.283
254.00	0.260
256.00	0.244
258.00	0.236
260.00	0.230
262.00	0.225
264.00	0.224
266.00	0.223
268.00	0.216
270.00	0.203
272.00	0.188
274.00	0.170
276.00	0.148
278.00	0.123
280.00	0.095
282.00	0.072
284.00	0.057
286.00	0.049
288.00	0.045
290.00	0.043
292.00	0.042
294.00	0.041
296.00	0.040
298.00	0.038
300.00	0.036
302.00	0.033
304.00	0.032
306.00	0.026
308.00	0.022
310.00	0.018
312.00	0.014
314.00	0.011
316.00	0.009
318.00	0.008
320.00	0.006
322.00	0.005
324.00	0.004
326.00	0.005
328.00	0.003
330.00	0.003
332.00	0.003
334.00	0.003
336.00	0.003
338.00	0.003
340.00	0.002
342.00	0.003
344.00	0.003
346.00	0.003
348.00	0.003
350.00	0.003
352.00	0.002
354.00	0.002
356.00	0.002
358.00	0.002
360.00	0.002
362.00	0.002
364.00	0.001
366.00	0.002
368.00	0.002
370.00	0.002
372.00	0.002
374.00	0.002
376.00	0.002
378.00	0.002
380.00	0.002
382.00	0.002
384.00	0.002
386.00	0.002
388.00	0.003
390.00	0.002
392.00	0.002
394.00	0.002
396.00	0.002
398.00	0.002
400.00	0.002
