"D4.spc - RawData"
"Wavelength nm."	"Abs."
220.00	0.193
222.00	0.180
224.00	0.166
226.00	0.152
228.00	0.137
230.00	0.121
232.00	0.106
234.00	0.091
236.00	0.076
238.00	0.064
240.00	0.053
242.00	0.043
244.00	0.035
246.00	0.029
248.00	0.024
250.00	0.020
252.00	0.018
254.00	0.016
256.00	0.015
258.00	0.015
260.00	0.014
262.00	0.014
264.00	0.014
266.00	0.014
268.00	0.013
270.00	0.012
272.00	0.011
274.00	0.010
276.00	0.008
278.00	0.006
280.00	0.004
282.00	0.002
284.00	0.001
286.00	-0.000
288.00	-0.000
290.00	-0.001
292.00	-0.001
294.00	-0.001
296.00	-0.001
298.00	-0.001
300.00	-0.001
302.00	-0.002
304.00	-0.000
306.00	-0.002
308.00	-0.003
310.00	-0.003
312.00	-0.003
314.00	-0.004
316.00	-0.004
318.00	-0.004
320.00	-0.004
322.00	-0.004
324.00	-0.004
326.00	-0.003
328.00	-0.003
330.00	-0.004
332.00	-0.004
334.00	-0.004
336.00	-0.003
338.00	-0.004
340.00	-0.004
342.00	-0.003
344.00	-0.004
346.00	-0.003
348.00	-0.003
350.00	-0.004
352.00	-0.004
354.00	-0.004
356.00	-0.004
358.00	-0.004
360.00	-0.003
362.00	-0.004
364.00	-0.005
366.00	-0.004
368.00	-0.004
370.00	-0.003
372.00	-0.003
374.00	-0.003
376.00	-0.003
378.00	-0.003
380.00	-0.003
382.00	-0.003
384.00	-0.003
386.00	-0.003
388.00	-0.003
390.00	-0.003
392.00	-0.003
394.00	-0.003
396.00	-0.003
398.00	-0.003
400.00	-0.003
