"A3.spc - RawData"
"Wavelength nm."	"Abs."
220.00	1.272
222.00	1.209
224.00	1.140
226.00	1.061
228.00	0.970
230.00	0.871
232.00	0.767
234.00	0.663
236.00	0.567
238.00	0.479
240.00	0.402
242.00	0.335
244.00	0.282
246.00	0.241
248.00	0.207
250.00	0.181
252.00	0.161
254.00	0.146
256.00	0.137
258.00	0.132
260.00	0.129
262.00	0.126
264.00	0.124
266.00	0.124
268.00	0.119
270.00	0.111
272.00	0.103
274.00	0.092
276.00	0.079
278.00	0.064
280.00	0.048
282.00	0.034
284.00	0.025
286.00	0.020
288.00	0.018
290.00	0.017
292.00	0.017
294.00	0.016
296.00	0.016
298.00	0.016
300.00	0.015
302.00	0.014
304.00	0.014
306.00	0.011
308.00	0.009
310.00	0.007
312.00	0.006
314.00	0.004
316.00	0.003
318.00	0.003
320.00	0.002
322.00	0.002
324.00	0.001
326.00	0.002
328.00	0.002
330.00	0.001
332.00	0.000
334.00	0.001
336.00	0.001
338.00	0.001
340.00	0.001
342.00	0.001
344.00	0.000
346.00	0.001
348.00	0.001
350.00	0.001
352.00	0.001
354.00	0.001
356.00	0.001
358.00	0.001
360.00	0.001
362.00	0.001
364.00	-0.001
366.00	0.001
368.00	0.001
370.00	0.001
372.00	0.001
374.00	0.000
376.00	0.001
378.00	0.001
380.00	0.001
382.00	0.001
384.00	0.001
386.00	0.001
388.00	0.001
390.00	0.001
392.00	0.001
394.00	0.001
396.00	0.001
398.00	0.001
400.00	0.001
