"A1.spc - RawData"	"A2.spc - RawData"	"A3.spc - RawData"	"A4.spc - RawData"	"A5.spc - RawData"	"A6.spc - RawData"	"A7.spc - RawData"	"A8.spc - RawData"
"Wavelength nm."	"Abs."	"Wavelength nm."	"Abs."	"Wavelength nm."	"Abs."	"Wavelength nm."	"Abs."	"Wavelength nm."	"Abs."	"Wavelength nm."	"Abs."	"Wavelength nm."	"Abs."	"Wavelength nm."	"Abs."
220.00	0.027		220.00	0.024		220.00	1.272	220.00	2.075	220.00	2.368	220.00	2.772	220.00	2.893	220.00	3.044
222.00	0.021		222.00	0.019		222.00	1.209	222.00	1.977	222.00	2.259	222.00	2.648	222.00	2.764	222.00	2.921
224.00	0.016		224.00	0.013		224.00	1.140	224.00	1.863	224.00	2.131	224.00	2.499	224.00	2.607	224.00	2.760
226.00	0.013		226.00	0.010		226.00	1.061	226.00	1.736	226.00	1.987	226.00	2.338	226.00	2.436	226.00	2.580
228.00	0.009		228.00	0.007		228.00	0.970	228.00	1.586	228.00	1.819	228.00	2.141	228.00	2.235	228.00	2.365
230.00	0.007		230.00	0.005		230.00	0.871	230.00	1.426	230.00	1.633	230.00	1.925	230.00	2.012	230.00	2.131
232.00	0.005		232.00	0.003		232.00	0.767	232.00	1.258	232.00	1.440	232.00	1.698	232.00	1.776	232.00	1.886
234.00	0.005		234.00	0.002		234.00	0.663	234.00	1.092	234.00	1.248	234.00	1.471	234.00	1.542	234.00	1.639
236.00	0.004		236.00	0.001		236.00	0.567	236.00	0.929	236.00	1.066	236.00	1.254	236.00	1.315	236.00	1.402
238.00	0.003		238.00	0.000		238.00	0.479	238.00	0.785	238.00	0.901	238.00	1.059	238.00	1.109	238.00	1.183
240.00	0.002		240.00	-0.001	240.00	0.402	240.00	0.659	240.00	0.757	240.00	0.889	240.00	0.927	240.00	0.987
242.00	0.001		242.00	-0.002	242.00	0.335	242.00	0.552	242.00	0.631	242.00	0.740	242.00	0.773	242.00	0.822
244.00	0.001		244.00	-0.002	244.00	0.282	244.00	0.465	244.00	0.532	244.00	0.621	244.00	0.648	244.00	0.691
246.00	0.000		246.00	-0.003	246.00	0.241	246.00	0.396	246.00	0.453	246.00	0.528	246.00	0.552	246.00	0.588
248.00	-0.001	248.00	-0.003	248.00	0.207	248.00	0.340	248.00	0.390	248.00	0.454	248.00	0.474	248.00	0.506
250.00	-0.001	250.00	-0.004	250.00	0.181	250.00	0.297	250.00	0.340	250.00	0.395	250.00	0.412	250.00	0.441
252.00	-0.001	252.00	-0.004	252.00	0.161	252.00	0.266	252.00	0.304	252.00	0.353	252.00	0.368	252.00	0.394
254.00	-0.001	254.00	-0.004	254.00	0.146	254.00	0.243	254.00	0.278	254.00	0.321	254.00	0.335	254.00	0.360
256.00	-0.001	256.00	-0.003	256.00	0.137	256.00	0.227	256.00	0.260	256.00	0.301	256.00	0.314	256.00	0.337
258.00	-0.001	258.00	-0.003	258.00	0.132	258.00	0.218	258.00	0.251	258.00	0.290	258.00	0.302	258.00	0.325
260.00	-0.000	260.00	-0.003	260.00	0.129	260.00	0.213	260.00	0.244	260.00	0.283	260.00	0.295	260.00	0.317
262.00	-0.000	262.00	-0.003	262.00	0.126	262.00	0.208	262.00	0.239	262.00	0.277	262.00	0.289	262.00	0.311
264.00	-0.001	264.00	-0.003	264.00	0.124	264.00	0.207	264.00	0.237	264.00	0.275	264.00	0.287	264.00	0.309
266.00	-0.000	266.00	-0.003	266.00	0.124	266.00	0.205	266.00	0.236	266.00	0.273	266.00	0.286	266.00	0.308
268.00	-0.000	268.00	-0.003	268.00	0.119	268.00	0.198	268.00	0.228	268.00	0.264	268.00	0.277	268.00	0.299
270.00	-0.001	270.00	-0.003	270.00	0.111	270.00	0.186	270.00	0.214	270.00	0.248	270.00	0.260	270.00	0.282
272.00	-0.001	272.00	-0.003	272.00	0.103	272.00	0.170	272.00	0.197	272.00	0.229	272.00	0.241	272.00	0.262
274.00	-0.001	274.00	-0.003	274.00	0.092	274.00	0.153	274.00	0.178	274.00	0.207	274.00	0.219	274.00	0.239
276.00	-0.001	276.00	-0.003	276.00	0.079	276.00	0.131	276.00	0.154	276.00	0.179	276.00	0.191	276.00	0.210
278.00	-0.001	278.00	-0.003	278.00	0.064	278.00	0.106	278.00	0.126	278.00	0.146	278.00	0.157	278.00	0.176
280.00	-0.001	280.00	-0.003	280.00	0.048	280.00	0.079	280.00	0.095	280.00	0.112	280.00	0.122	280.00	0.139
282.00	-0.001	282.00	-0.003	282.00	0.034	282.00	0.057	282.00	0.070	282.00	0.082	282.00	0.092	282.00	0.109
284.00	-0.001	284.00	-0.003	284.00	0.025	284.00	0.042	284.00	0.054	284.00	0.064	284.00	0.074	284.00	0.090
286.00	-0.001	286.00	-0.003	286.00	0.020	286.00	0.034	286.00	0.045	286.00	0.054	286.00	0.064	286.00	0.080
288.00	-0.001	288.00	-0.002	288.00	0.018	288.00	0.030	288.00	0.041	288.00	0.050	288.00	0.060	288.00	0.076
290.00	-0.001	290.00	-0.003	290.00	0.017	290.00	0.028	290.00	0.039	290.00	0.048	290.00	0.059	290.00	0.075
292.00	-0.001	292.00	-0.002	292.00	0.017	292.00	0.028	292.00	0.038	292.00	0.048	292.00	0.058	292.00	0.075
294.00	-0.001	294.00	-0.003	294.00	0.016	294.00	0.027	294.00	0.038	294.00	0.048	294.00	0.058	294.00	0.074
296.00	-0.001	296.00	-0.003	296.00	0.016	296.00	0.027	296.00	0.037	296.00	0.046	296.00	0.057	296.00	0.073
298.00	-0.001	298.00	-0.003	298.00	0.016	298.00	0.026	298.00	0.036	298.00	0.045	298.00	0.055	298.00	0.071
300.00	-0.002	300.00	-0.003	300.00	0.015	300.00	0.024	300.00	0.034	300.00	0.042	300.00	0.052	300.00	0.067
302.00	-0.002	302.00	-0.003	302.00	0.014	302.00	0.023	302.00	0.032	302.00	0.040	302.00	0.049	302.00	0.063
304.00	0.000		304.00	-0.001	304.00	0.014	304.00	0.023	304.00	0.030	304.00	0.038	304.00	0.045	304.00	0.058
306.00	-0.002	306.00	-0.003	306.00	0.011	306.00	0.018	306.00	0.024	306.00	0.031	306.00	0.037	306.00	0.049
308.00	-0.002	308.00	-0.004	308.00	0.009	308.00	0.015	308.00	0.021	308.00	0.025	308.00	0.031	308.00	0.041
310.00	-0.002	310.00	-0.004	310.00	0.007	310.00	0.012	310.00	0.017	310.00	0.020	310.00	0.025	310.00	0.034
312.00	-0.002	312.00	-0.004	312.00	0.006	312.00	0.010	312.00	0.013	312.00	0.016	312.00	0.019	312.00	0.027
314.00	-0.003	314.00	-0.004	314.00	0.004	314.00	0.008	314.00	0.011	314.00	0.012	314.00	0.014	314.00	0.021
316.00	-0.003	316.00	-0.004	316.00	0.003	316.00	0.007	316.00	0.009	316.00	0.009	316.00	0.011	316.00	0.017
318.00	-0.002	318.00	-0.004	318.00	0.003	318.00	0.005	318.00	0.007	318.00	0.007	318.00	0.008	318.00	0.013
320.00	-0.003	320.00	-0.005	320.00	0.002	320.00	0.004	320.00	0.005	320.00	0.005	320.00	0.006	320.00	0.011
322.00	-0.003	322.00	-0.004	322.00	0.002	322.00	0.003	322.00	0.005	322.00	0.004	322.00	0.005	322.00	0.009
324.00	-0.003	324.00	-0.004	324.00	0.001	324.00	0.003	324.00	0.004	324.00	0.003	324.00	0.003	324.00	0.007
326.00	-0.002	326.00	-0.004	326.00	0.002	326.00	0.003	326.00	0.004	326.00	0.002	326.00	0.003	326.00	0.007
328.00	-0.003	328.00	-0.004	328.00	0.002	328.00	0.002	328.00	0.004	328.00	0.002	328.00	0.002	328.00	0.006
330.00	-0.004	330.00	-0.004	330.00	0.001	330.00	0.002	330.00	0.003	330.00	0.001	330.00	0.002	330.00	0.005
332.00	-0.003	332.00	-0.004	332.00	0.000	332.00	0.003	332.00	0.003	332.00	0.001	332.00	0.001	332.00	0.005
334.00	-0.003	334.00	-0.003	334.00	0.001	334.00	0.002	334.00	0.003	334.00	0.001	334.00	0.001	334.00	0.005
336.00	-0.003	336.00	-0.003	336.00	0.001	336.00	0.002	336.00	0.003	336.00	0.001	336.00	0.001	336.00	0.005
338.00	-0.003	338.00	-0.004	338.00	0.001	338.00	0.002	338.00	0.003	338.00	0.001	338.00	0.001	338.00	0.004
340.00	-0.003	340.00	-0.004	340.00	0.001	340.00	0.002	340.00	0.003	340.00	0.000	340.00	0.001	340.00	0.004
342.00	-0.003	342.00	-0.004	342.00	0.001	342.00	0.002	342.00	0.003	342.00	0.001	342.00	0.001	342.00	0.004
344.00	-0.003	344.00	-0.004	344.00	0.000	344.00	0.002	344.00	0.003	344.00	0.001	344.00	0.000	344.00	0.004
346.00	-0.003	346.00	-0.004	346.00	0.001	346.00	0.003	346.00	0.003	346.00	0.001	346.00	0.000	346.00	0.004
348.00	-0.003	348.00	-0.003	348.00	0.001	348.00	0.002	348.00	0.003	348.00	-0.000 348.00	0.000	348.00	0.004
350.00	-0.003	350.00	-0.003	350.00	0.001	350.00	0.002	350.00	0.002	350.00	0.000	350.00	0.000	350.00	0.003
352.00	-0.003	352.00	-0.004	352.00	0.001	352.00	0.002	352.00	0.003	352.00	0.001	352.00	0.000	352.00	0.003
354.00	-0.003	354.00	-0.004	354.00	0.001	354.00	0.002	354.00	0.003	354.00	0.000	354.00	0.000	354.00	0.003
356.00	-0.003	356.00	-0.004	356.00	0.001	356.00	0.002	356.00	0.002	356.00	0.000	356.00	0.000	356.00	0.003
358.00	-0.003	358.00	-0.004	358.00	0.001	358.00	0.002	358.00	0.002	358.00	0.000	358.00	0.000	358.00	0.003
360.00	-0.003	360.00	-0.004	360.00	0.001	360.00	0.002	360.00	0.003	360.00	0.000	360.00	0.000	360.00	0.003
362.00	-0.003	362.00	-0.003	362.00	0.001	362.00	0.002	362.00	0.003	362.00	0.000	362.00	-0.000 362.00	0.003
364.00	-0.005	364.00	-0.005	364.00	-0.001 364.00	0.001	364.00	0.001	364.00	-0.002 364.00	-0.002 364.00	0.002
366.00	-0.003	366.00	-0.003	366.00	0.001	366.00	0.002	366.00	0.003	366.00	-0.000 366.00	-0.001 366.00	0.003
368.00	-0.004	368.00	-0.003	368.00	0.001	368.00	0.001	368.00	0.002	368.00	0.000	368.00	-0.001 368.00	0.003
370.00	-0.003	370.00	-0.003	370.00	0.001	370.00	0.001	370.00	0.003	370.00	0.000	370.00	-0.000 370.00	0.003
372.00	-0.003	372.00	-0.003	372.00	0.001	372.00	0.002	372.00	0.003	372.00	0.000	372.00	0.000	372.00	0.003
374.00	-0.003	374.00	-0.003	374.00	0.000	374.00	0.002	374.00	0.003	374.00	0.000	374.00	0.000	374.00	0.003
376.00	-0.003	376.00	-0.004	376.00	0.001	376.00	0.002	376.00	0.003	376.00	-0.000 376.00	-0.000 376.00	0.003
378.00	-0.003	378.00	-0.003	378.00	0.001	378.00	0.002	378.00	0.003	378.00	-0.000 378.00	0.000	378.00	0.003
380.00	-0.003	380.00	-0.003	380.00	0.001	380.00	0.002	380.00	0.003	380.00	0.000	380.00	0.000	380.00	0.003
382.00	-0.003	382.00	-0.003	382.00	0.001	382.00	0.002	382.00	0.003	382.00	0.000	382.00	0.000	382.00	0.003
384.00	-0.003	384.00	-0.003	384.00	0.001	384.00	0.002	384.00	0.003	384.00	0.000	384.00	0.000	384.00	0.003
386.00	-0.003	386.00	-0.003	386.00	0.001	386.00	0.002	386.00	0.003	386.00	0.000	386.00	0.001	386.00	0.003
388.00	-0.003	388.00	-0.003	388.00	0.001	388.00	0.002	388.00	0.003	388.00	0.000	388.00	0.001	388.00	0.004
390.00	-0.003	390.00	-0.003	390.00	0.001	390.00	0.002	390.00	0.003	390.00	0.000	390.00	0.000	390.00	0.003
392.00	-0.003	392.00	-0.003	392.00	0.001	392.00	0.002	392.00	0.003	392.00	0.000	392.00	0.000	392.00	0.003
394.00	-0.003	394.00	-0.003	394.00	0.001	394.00	0.002	394.00	0.003	394.00	0.001	394.00	0.000	394.00	0.003
396.00	-0.003	396.00	-0.003	396.00	0.001	396.00	0.002	396.00	0.003	396.00	0.000	396.00	0.000	396.00	0.003
398.00	-0.003	398.00	-0.003	398.00	0.001	398.00	0.002	398.00	0.003	398.00	0.000	398.00	0.001	398.00	0.003
400.00	-0.003	400.00	-0.003	400.00	0.001	400.00	0.002	400.00	0.003	400.00	0.000	400.00	0.000	400.00	0.003
