"B7.spc - RawData"
"Wavelength nm."	"Abs."
220.00	2.345
222.00	2.234
224.00	2.108
226.00	1.967
228.00	1.804
230.00	1.622
232.00	1.432
234.00	1.242
236.00	1.061
238.00	0.894
240.00	0.753
242.00	0.628
244.00	0.530
246.00	0.451
248.00	0.389
250.00	0.340
252.00	0.306
254.00	0.280
256.00	0.263
258.00	0.254
260.00	0.248
262.00	0.243
264.00	0.242
266.00	0.241
268.00	0.233
270.00	0.220
272.00	0.204
274.00	0.185
276.00	0.162
278.00	0.134
280.00	0.106
282.00	0.081
284.00	0.066
286.00	0.057
288.00	0.053
290.00	0.051
292.00	0.051
294.00	0.050
296.00	0.049
298.00	0.046
300.00	0.044
302.00	0.041
304.00	0.039
306.00	0.032
308.00	0.027
310.00	0.022
312.00	0.018
314.00	0.014
316.00	0.012
318.00	0.009
320.00	0.007
322.00	0.006
324.00	0.005
326.00	0.006
328.00	0.004
330.00	0.003
332.00	0.004
334.00	0.004
336.00	0.004
338.00	0.003
340.00	0.003
342.00	0.003
344.00	0.003
346.00	0.003
348.00	0.003
350.00	0.003
352.00	0.003
354.00	0.003
356.00	0.003
358.00	0.003
360.00	0.002
362.00	0.003
364.00	0.001
366.00	0.003
368.00	0.002
370.00	0.002
372.00	0.002
374.00	0.002
376.00	0.002
378.00	0.003
380.00	0.003
382.00	0.002
384.00	0.002
386.00	0.003
388.00	0.003
390.00	0.003
392.00	0.002
394.00	0.002
396.00	0.002
398.00	0.002
400.00	0.002
