"C4.spc - RawData"
"Wavelength nm."	"Abs."
220.00	1.021
222.00	0.969
224.00	0.912
226.00	0.848
228.00	0.774
230.00	0.695
232.00	0.613
234.00	0.531
236.00	0.452
238.00	0.381
240.00	0.320
242.00	0.268
244.00	0.225
246.00	0.191
248.00	0.165
250.00	0.143
252.00	0.128
254.00	0.116
256.00	0.109
258.00	0.105
260.00	0.102
262.00	0.100
264.00	0.099
266.00	0.099
268.00	0.095
270.00	0.089
272.00	0.082
274.00	0.074
276.00	0.063
278.00	0.051
280.00	0.039
282.00	0.028
284.00	0.020
286.00	0.017
288.00	0.015
290.00	0.014
292.00	0.014
294.00	0.013
296.00	0.013
298.00	0.012
300.00	0.011
302.00	0.011
304.00	0.011
306.00	0.008
308.00	0.006
310.00	0.005
312.00	0.004
314.00	0.003
316.00	0.002
318.00	0.001
320.00	0.001
322.00	0.001
324.00	0.000
326.00	0.001
328.00	0.001
330.00	0.000
332.00	-0.000
334.00	0.000
336.00	0.000
338.00	0.000
340.00	0.000
342.00	0.000
344.00	-0.000
346.00	0.000
348.00	0.000
350.00	0.000
352.00	0.000
354.00	-0.000
356.00	-0.000
358.00	0.000
360.00	0.000
362.00	-0.000
364.00	-0.002
366.00	-0.000
368.00	0.000
370.00	0.000
372.00	0.000
374.00	0.000
376.00	0.000
378.00	0.000
380.00	0.000
382.00	0.000
384.00	0.001
386.00	0.001
388.00	0.001
390.00	0.001
392.00	0.000
394.00	0.001
396.00	0.001
398.00	0.001
400.00	0.000
