"C7.spc - RawData"
"Wavelength nm."	"Abs."
220.00	2.416
222.00	2.302
224.00	2.169
226.00	2.023
228.00	1.856
230.00	1.670
232.00	1.473
234.00	1.276
236.00	1.092
238.00	0.920
240.00	0.775
242.00	0.646
244.00	0.545
246.00	0.462
248.00	0.398
250.00	0.347
252.00	0.311
254.00	0.284
256.00	0.266
258.00	0.257
260.00	0.250
262.00	0.245
264.00	0.243
266.00	0.243
268.00	0.235
270.00	0.220
272.00	0.204
274.00	0.185
276.00	0.161
278.00	0.133
280.00	0.103
282.00	0.077
284.00	0.062
286.00	0.053
288.00	0.050
290.00	0.048
292.00	0.047
294.00	0.047
296.00	0.046
298.00	0.044
300.00	0.042
302.00	0.039
304.00	0.038
306.00	0.031
308.00	0.027
310.00	0.022
312.00	0.018
314.00	0.015
316.00	0.012
318.00	0.010
320.00	0.009
322.00	0.007
324.00	0.006
326.00	0.006
328.00	0.006
330.00	0.005
332.00	0.005
334.00	0.005
336.00	0.005
338.00	0.004
340.00	0.004
342.00	0.004
344.00	0.004
346.00	0.004
348.00	0.004
350.00	0.004
352.00	0.004
354.00	0.004
356.00	0.004
358.00	0.004
360.00	0.004
362.00	0.004
364.00	0.002
366.00	0.004
368.00	0.004
370.00	0.004
372.00	0.004
374.00	0.004
376.00	0.004
378.00	0.004
380.00	0.004
382.00	0.004
384.00	0.004
386.00	0.004
388.00	0.004
390.00	0.004
392.00	0.004
394.00	0.004
396.00	0.004
398.00	0.004
400.00	0.004
